Data Set 1:Wavelength(nm),Data Set 1:Absorbance
220,0.529
220.6,0.517
221.3,0.497
221.9,0.478
222.6,0.459
223.2,0.444
223.9,0.427
224.5,0.412
225.2,0.397
225.8,0.384
226.5,0.373
227.1,0.362
227.8,0.351
228.4,0.341
229.1,0.332
229.7,0.322
230.4,0.315
231,0.308
231.7,0.303
232.3,0.296
233,0.29
233.6,0.288
234.3,0.284
234.9,0.282
235.6,0.276
236.2,0.274
236.9,0.271
237.5,0.269
238.2,0.265
238.8,0.263
239.5,0.261
240.1,0.261
240.8,0.26
241.4,0.261
242,0.263
242.7,0.265
243.3,0.266
244,0.265
244.6,0.265
245.3,0.262
245.9,0.26
246.6,0.256
247.2,0.252
247.9,0.248
248.5,0.246
249.2,0.246
249.8,0.248
250.5,0.252
251.1,0.257
251.8,0.264
252.4,0.268
253.1,0.268
253.7,0.261
254.4,0.248
255,0.231
255.7,0.212
256.3,0.195
257,0.178
257.6,0.164
258.3,0.154
258.9,0.147
259.6,0.142
260.2,0.138
260.9,0.136
261.5,0.134
262.2,0.133
262.8,0.131
263.5,0.128
264.1,0.125
264.8,0.122
265.4,0.119
266.1,0.118
266.7,0.116
267.4,0.116
268,0.114
268.7,0.113
269.3,0.111
270,0.11
270.6,0.109
271.3,0.107
271.9,0.105
272.6,0.104
273.2,0.102
273.8,0.101
274.5,0.1
275.1,0.1
275.8,0.097
276.4,0.096
277.1,0.095
277.8,0.096
278.4,0.095
279,0.094
279.7,0.091
280.3,0.089
280.9,0.088
281.6,0.088
282.2,0.086
282.9,0.085
283.5,0.083
284.1,0.081
284.8,0.08
285.4,0.077
286.1,0.075
286.7,0.073
287.3,0.073
288,0.071
288.6,0.069
289.3,0.066
289.9,0.065
290.5,0.063
291.2,0.061
291.8,0.06
292.5,0.058
293.1,0.057
293.7,0.055
294.4,0.054
295,0.052
295.7,0.05
296.3,0.049
296.9,0.048
297.6,0.047
298.2,0.046
298.9,0.044
299.5,0.044
300.1,0.044
300.8,0.043
301.4,0.042
302,0.04
302.7,0.039
303.3,0.039
304,0.038
304.6,0.037
305.2,0.036
305.9,0.036
306.5,0.035
307.2,0.034
307.8,0.033
308.4,0.032
309.1,0.032
309.7,0.032
310.4,0.033
311,0.033
311.6,0.032
312.3,0.03
312.9,0.029
313.6,0.027
314.2,0.027
314.8,0.025
315.5,0.024
316.1,0.023
316.8,0.023
317.4,0.023
318,0.023
318.7,0.022
319.3,0.022
320,0.022
320.6,0.021
321.2,0.021
321.9,0.02
322.5,0.021
323.1,0.02
323.8,0.021
324.4,0.021
325.1,0.021
325.7,0.021
326.3,0.023
327,0.025
327.6,0.025
328.3,0.022
328.9,0.018
329.5,0.013
330.2,0.008
330.8,0.004
331.5,0.003
332.1,0.003
332.8,0.006
333.4,0.006
334.1,0.006
334.8,0.005
335.4,0.005
336.1,0.007
336.8,0.008
337.5,0.008
338.1,0.007
338.8,0.007
339.5,0.007
340.2,0.007
340.8,0.006
341.5,0.005
342.2,0.005
342.9,0.004
343.5,0.005
344.2,0.004
344.9,0.004
345.6,0.002
346.2,0.001
346.9,0.001
347.6,0.001
348.3,0
348.9,0
349.6,-0.001
350.3,0
351,0
351.6,-0.001
352.3,-0.002
353,-0.003
353.7,-0.003
354.3,-0.003
355,-0.003
355.7,-0.003
356.4,-0.003
357,-0.003
357.7,-0.004
358.4,-0.005
359.1,-0.005
359.7,-0.006
360.4,-0.005
361.1,-0.006
361.8,-0.008
362.4,-0.01
363.1,-0.01
363.7,-0.009
364.4,-0.009
365,-0.007
365.7,-0.008
366.4,-0.008
367,-0.009
367.7,-0.01
368.3,-0.009
369,-0.009
369.7,-0.01
370.3,-0.01
371,-0.01
371.6,-0.01
372.3,-0.009
372.9,-0.01
373.6,-0.011
374.3,-0.012
374.9,-0.014
375.6,-0.011
376.2,-0.011
376.9,-0.01
377.6,-0.012
378.2,-0.014
378.9,-0.014
379.5,-0.015
380.2,-0.014
380.8,-0.014
381.5,-0.014
382.2,-0.014
382.8,-0.017
383.5,-0.018
384.1,-0.018
384.8,-0.016
385.5,-0.015
386.1,-0.017
386.8,-0.019
387.4,-0.02
388.1,-0.02
388.7,-0.02
389.4,-0.019
390.1,-0.017
390.7,-0.015
391.4,-0.015
392,-0.015
392.7,-0.018
393.4,-0.021
394,-0.022
394.7,-0.02
395.3,-0.017
396,-0.016
396.6,-0.018
397.3,-0.021
398,-0.021
398.6,-0.02
399.3,-0.02
399.9,-0.021
400.6,-0.022
401.3,-0.022
401.9,-0.019
402.6,-0.018
403.2,-0.017
403.9,-0.02
404.5,-0.022
405.2,-0.021
405.9,-0.021
406.5,-0.02
407.2,-0.021
407.8,-0.022
408.5,-0.023
409.2,-0.022
409.8,-0.021
410.5,-0.02
411.1,-0.021
411.8,-0.021
412.4,-0.022
413.1,-0.022
413.8,-0.022
414.4,-0.021
415.1,-0.022
415.8,-0.023
416.4,-0.026
417.1,-0.026
417.7,-0.026
418.4,-0.023
419.1,-0.023
419.7,-0.022
420.4,-0.021
421,-0.021
421.7,-0.022
422.4,-0.025
423,-0.028
423.7,-0.027
424.3,-0.025
425,-0.024
425.7,-0.026
426.3,-0.027
427,-0.023
427.6,-0.02
428.3,-0.02
429,-0.024
429.6,-0.028
430.3,-0.026
430.9,-0.026
431.6,-0.024
432.3,-0.028
432.9,-0.028
433.6,-0.03
434.2,-0.03
434.9,-0.029
435.6,-0.028
436.2,-0.029
436.9,-0.033
437.5,-0.033
438.2,-0.029
438.9,-0.026
439.5,-0.027
440.2,-0.029
440.8,-0.029
441.5,-0.028
442.2,-0.029
442.8,-0.027
443.5,-0.028
444.1,-0.027
444.8,-0.029
445.5,-0.029
446.1,-0.03
446.8,-0.028
447.4,-0.03
448.1,-0.029
448.8,-0.03
449.4,-0.029
450.1,-0.03
450.8,-0.033
451.4,-0.034
452.1,-0.034
452.7,-0.033
453.4,-0.034
454.1,-0.034
454.7,-0.031
455.4,-0.029
456,-0.029
456.7,-0.031
457.4,-0.031
458,-0.032
458.7,-0.034
459.3,-0.037
460,-0.038
460.7,-0.035
461.3,-0.031
462,-0.03
462.6,-0.03
463.3,-0.032
464,-0.033
464.6,-0.034
465.3,-0.032
465.9,-0.033
466.6,-0.034
467.3,-0.037
467.9,-0.038
468.6,-0.04
469.2,-0.038
469.9,-0.037
470.6,-0.037
471.2,-0.037
471.9,-0.037
472.5,-0.036
473.2,-0.036
473.9,-0.037
474.5,-0.036
475.2,-0.037
475.8,-0.038
476.5,-0.038
477.2,-0.038
477.8,-0.038
478.5,-0.039
479.1,-0.042
479.8,-0.043
480.5,-0.045
481.1,-0.049
481.8,-0.046
482.4,-0.032
483.1,-0.024
483.8,-0.022
484.4,-0.035
485.1,-0.036
485.7,-0.037
486.4,-0.037
487,-0.037
487.7,-0.039
488.3,-0.04
489,-0.04
489.7,-0.04
490.3,-0.041
491,-0.042
491.6,-0.044
492.3,-0.042
492.9,-0.04
493.6,-0.04
494.2,-0.041
494.9,-0.042
495.5,-0.04
496.2,-0.04
496.8,-0.042
497.5,-0.043
498.2,-0.043
498.8,-0.042
499.5,-0.042
500.1,-0.042
500.8,-0.043
501.4,-0.043
502.1,-0.043
502.7,-0.043
503.4,-0.043
504,-0.043
504.7,-0.043
505.3,-0.044
506,-0.045
506.7,-0.046
507.3,-0.045
508,-0.045
508.6,-0.044
509.3,-0.044
509.9,-0.044
510.6,-0.045
511.2,-0.046
511.9,-0.047
512.5,-0.046
513.2,-0.046
513.8,-0.045
514.5,-0.046
515.2,-0.044
515.8,-0.044
516.5,-0.044
517.1,-0.045
517.8,-0.045
518.4,-0.047
519.1,-0.048
519.7,-0.047
520.4,-0.046
521,-0.046
521.7,-0.046
522.3,-0.046
523,-0.046
523.7,-0.046
524.3,-0.046
525,-0.046
525.6,-0.046
526.3,-0.047
526.9,-0.049
527.6,-0.05
528.2,-0.049
528.9,-0.047
529.5,-0.047
530.2,-0.047
530.8,-0.047
531.5,-0.047
532.2,-0.048
532.8,-0.049
533.5,-0.049
534.1,-0.048
534.8,-0.048
535.4,-0.048
536.1,-0.048
536.8,-0.049
537.4,-0.048
538.1,-0.048
538.8,-0.048
539.5,-0.049
540.2,-0.049
540.8,-0.049
541.5,-0.05
542.2,-0.051
542.9,-0.05
543.6,-0.049
544.2,-0.048
544.9,-0.049
545.6,-0.05
546.3,-0.051
547,-0.051
547.6,-0.052
548.3,-0.051
549,-0.049
549.7,-0.049
550.4,-0.049
551,-0.049
551.7,-0.049
552.4,-0.049
553.1,-0.049
553.8,-0.049
554.4,-0.051
555.1,-0.051
555.8,-0.051
556.5,-0.048
557.2,-0.048
557.8,-0.048
558.5,-0.05
559.2,-0.05
559.9,-0.051
560.6,-0.051
561.2,-0.053
561.9,-0.053
562.6,-0.053
563.3,-0.052
564,-0.052
564.6,-0.052
565.3,-0.051
566,-0.051
566.7,-0.051
567.4,-0.051
568,-0.05
568.7,-0.05
569.4,-0.051
570.1,-0.05
570.7,-0.048
571.4,-0.047
572.1,-0.049
572.8,-0.049
573.5,-0.049
574.1,-0.047
574.8,-0.046
575.5,-0.046
576.2,-0.048
576.9,-0.05
577.5,-0.048
578.2,-0.044
578.9,-0.042
579.6,-0.044
580.3,-0.05
580.9,-0.05
581.6,-0.048
582.3,-0.046
583,-0.048
583.7,-0.049
584.3,-0.047
585,-0.045
585.7,-0.045
586.4,-0.047
587.1,-0.05
587.8,-0.051
588.4,-0.052
589.1,-0.051
589.7,-0.048
590.4,-0.047
591.1,-0.048
591.7,-0.048
592.4,-0.047
593,-0.048
593.7,-0.05
594.4,-0.051
595,-0.052
595.7,-0.051
596.4,-0.053
597,-0.052
597.7,-0.053
598.3,-0.052
599,-0.051
599.7,-0.05
600.3,-0.048
601,-0.048
601.7,-0.049
602.3,-0.05
603,-0.049
603.6,-0.049
604.3,-0.05
605,-0.051
605.6,-0.052
606.3,-0.053
607,-0.053
607.6,-0.053
608.3,-0.053
608.9,-0.054
609.6,-0.053
610.3,-0.053
610.9,-0.053
611.6,-0.053
612.3,-0.052
612.9,-0.052
613.6,-0.052
614.2,-0.054
614.9,-0.054
615.6,-0.055
616.2,-0.054
616.9,-0.054
617.6,-0.054
618.2,-0.055
618.9,-0.055
619.5,-0.054
620.2,-0.053
620.9,-0.053
621.5,-0.053
622.2,-0.054
622.9,-0.055
623.5,-0.056
624.2,-0.055
624.8,-0.056
625.5,-0.056
626.2,-0.056
626.8,-0.055
627.5,-0.054
628.2,-0.055
628.8,-0.055
629.5,-0.055
630.1,-0.055
630.8,-0.056
631.5,-0.057
632.1,-0.058
632.8,-0.059
633.5,-0.058
634.1,-0.059
634.8,-0.058
635.4,-0.058
636.1,-0.058
636.8,-0.058
637.4,-0.058
638.1,-0.057
638.8,-0.057
639.4,-0.057
640.1,-0.057
640.8,-0.057
641.4,-0.056
642.1,-0.057
642.7,-0.057
643.4,-0.058
644,-0.058
644.7,-0.058
645.4,-0.058
646,-0.057
646.7,-0.057
647.3,-0.058
648,-0.058
648.7,-0.058
649.3,-0.059
650,-0.06
650.6,-0.063
651.3,-0.064
651.9,-0.065
652.6,-0.065
653.3,-0.064
653.9,-0.064
654.6,-0.064
655.2,-0.064
655.9,-0.063
656.6,-0.063
657.2,-0.063
657.9,-0.063
658.5,-0.062
659.2,-0.062
659.8,-0.062
660.5,-0.061
661.2,-0.061
661.8,-0.061
662.5,-0.061
663.1,-0.06
663.8,-0.06
664.5,-0.059
665.1,-0.059
665.8,-0.059
666.4,-0.059
667.1,-0.059
667.8,-0.058
668.4,-0.058
669.1,-0.058
669.8,-0.06
670.4,-0.06
671.1,-0.06
671.8,-0.06
672.5,-0.059
673.1,-0.059
673.8,-0.06
674.5,-0.06
675.1,-0.059
675.8,-0.059
676.5,-0.059
677.2,-0.06
677.8,-0.06
678.5,-0.06
679.2,-0.06
679.9,-0.06
680.5,-0.06
681.2,-0.06
681.9,-0.059
682.5,-0.059
683.2,-0.058
683.9,-0.059
684.6,-0.059
685.2,-0.06
685.9,-0.06
686.6,-0.06
687.2,-0.059
687.9,-0.06
688.6,-0.06
689.3,-0.06
689.9,-0.06
690.6,-0.06
691.3,-0.06
692,-0.061
692.6,-0.061
693.3,-0.061
694,-0.061
694.6,-0.061
695.3,-0.06
696,-0.06
696.7,-0.06
697.3,-0.06
698,-0.061
698.7,-0.061
699.4,-0.06
700,-0.058
700.7,-0.057
701.4,-0.055
702,-0.053
702.7,-0.049
703.4,-0.043
704.1,-0.039
704.7,-0.038
705.4,-0.04
706.1,-0.041
706.8,-0.041
707.4,-0.04
708.1,-0.04
708.7,-0.04
709.4,-0.039
710.1,-0.037
710.7,-0.035
711.4,-0.036
712,-0.036
712.7,-0.039
713.4,-0.04
714,-0.041
714.7,-0.041
715.3,-0.04
716,-0.04
716.7,-0.042
717.3,-0.044
718,-0.044
718.6,-0.044
719.3,-0.045
720,-0.045
720.6,-0.044
721.3,-0.043
721.9,-0.041
722.6,-0.04
723.3,-0.04
723.9,-0.041
724.6,-0.042
725.2,-0.042
725.9,-0.041
726.6,-0.041
727.2,-0.039
727.9,-0.038
728.5,-0.039
729.2,-0.041
729.9,-0.042
730.5,-0.04
731.2,-0.04
731.8,-0.04
732.5,-0.042
733.2,-0.043
733.8,-0.044
734.5,-0.047
735.1,-0.048
735.8,-0.047
736.5,-0.046
737.1,-0.047
737.8,-0.05
738.4,-0.052
739.1,-0.052
739.8,-0.053
740.4,-0.053
741.1,-0.054
741.9,-0.054
742.6,-0.054
743.4,-0.055
744.1,-0.055
744.9,-0.055
745.6,-0.055
746.4,-0.056
747.1,-0.056
747.9,-0.055
748.6,-0.055
749.4,-0.056
750.1,-0.057
750.9,-0.057
751.6,-0.056
752.4,-0.055
753.1,-0.055
753.8,-0.056
754.6,-0.053
755.3,-0.051
756.1,-0.049
756.8,-0.05
757.6,-0.052
758.3,-0.054
759.1,-0.054
759.8,-0.054
760.6,-0.056
761.3,-0.057
762.1,-0.058
762.8,-0.058
763.6,-0.057
764.3,-0.056
765.1,-0.056
765.8,-0.056
766.6,-0.058
767.3,-0.058
768.1,-0.058
768.8,-0.057
769.6,-0.057
770.3,-0.058
771.1,-0.058
771.8,-0.058
772.6,-0.058
773.3,-0.058
774.1,-0.059
774.8,-0.058
775.6,-0.058
776.3,-0.058
777,-0.059
777.8,-0.059
778.5,-0.059
779.3,-0.06
780,-0.06
780.8,-0.059
781.5,-0.059
782.3,-0.059
783,-0.059
783.8,-0.059
784.5,-0.06
785.3,-0.06
786,-0.059
786.8,-0.059
787.5,-0.059
788.3,-0.059
789,-0.06
789.8,-0.06
790.5,-0.06
791.3,-0.059
792,-0.059
792.8,-0.06
793.5,-0.06
794.3,-0.061
795,-0.061
795.8,-0.061
796.5,-0.061
797.3,-0.06
798,-0.059
798.8,-0.059
799.5,-0.06
800.2,-0.061
801,-0.06
801.8,-0.06
802.4,-0.059
803,-0.06
803.6,-0.06
804.2,-0.061
804.8,-0.06
805.4,-0.06
806,-0.06
806.6,-0.06
807.2,-0.06
807.8,-0.059
808.4,-0.06
809,-0.06
809.6,-0.06
810.2,-0.06
810.8,-0.06
811.4,-0.061
812,-0.061
812.6,-0.061
813.2,-0.061
813.8,-0.061
814.4,-0.061
815,-0.061
815.6,-0.061
816.2,-0.061
816.8,-0.061
817.4,-0.062
818,-0.062
818.6,-0.063
819.2,-0.062
819.8,-0.063
820.4,-0.063
821,-0.063
821.6,-0.064
822.2,-0.064
822.8,-0.063
823.4,-0.062
824,-0.061
824.6,-0.062
825.2,-0.062
825.8,-0.062
826.4,-0.063
827,-0.063
827.6,-0.064
828.2,-0.064
828.8,-0.063
829.4,-0.063
830,-0.063
830.6,-0.064
831.2,-0.064
831.8,-0.064
832.4,-0.064
833,-0.064
833.6,-0.064
834.2,-0.065
834.8,-0.065
835.4,-0.064
836,-0.064
836.6,-0.064
837.2,-0.064
837.8,-0.065
838.4,-0.065
839,-0.065
839.6,-0.064
840.2,-0.064
840.8,-0.065
841.4,-0.066
842,-0.065
842.6,-0.065
843.2,-0.065
843.8,-0.065
844.4,-0.065
845,-0.065
845.6,-0.065
846.2,-0.065
846.8,-0.065
847.4,-0.066
848,-0.066
848.6,-0.066
849.2,-0.066
849.8,-0.066
850.4,-0.065
851,-0.066
851.6,-0.066
852.2,-0.065
852.8,-0.065
853.4,-0.065
854,-0.065
854.6,-0.065
855.2,-0.065
855.8,-0.065
856.4,-0.065
857,-0.065
857.6,-0.064
858.2,-0.064
858.8,-0.064
859.4,-0.064
860,-0.064
860.6,-0.064
861.2,-0.064
861.8,-0.063
862.4,-0.063
863,-0.064
863.6,-0.065
864.2,-0.065
864.8,-0.064
865.4,-0.063
866.1,-0.062
866.7,-0.062
867.3,-0.062
867.9,-0.061
868.5,-0.061
869.1,-0.061
869.7,-0.061
870.3,-0.061
870.9,-0.061
871.5,-0.06
872.1,-0.059
872.7,-0.058
873.3,-0.058
873.9,-0.058
874.5,-0.058
875.1,-0.058
875.7,-0.056
876.3,-0.056
876.9,-0.056
877.5,-0.056
878.1,-0.056
878.7,-0.056
879.3,-0.057
879.9,-0.057
880.5,-0.056
881.1,-0.055
881.7,-0.056
882.3,-0.056
882.9,-0.055
883.5,-0.054
884.1,-0.054
884.7,-0.055
885.3,-0.054
885.9,-0.053
886.5,-0.052
887.1,-0.052
887.7,-0.051
888.3,-0.049
888.9,-0.047
889.5,-0.046
890.1,-0.047
890.7,-0.045
891.3,-0.042
891.9,-0.038
892.5,-0.037
893.1,-0.035
893.7,-0.033
894.3,-0.029
894.9,-0.027
895.5,-0.025
896.1,-0.023
896.7,-0.021
897.3,-0.019
897.9,-0.017
898.5,-0.015
899.1,-0.012
899.7,-0.01
